#
#"Frequency / THz"	"Total RCS [pw] [Magnitude / nm^2]"
#-----------------------------------------------------
400.00000000000	19065.238859384
401.00000000000	19363.849977359
402.00000000000	19669.851666412
403.00000000000	19982.771372364
404.00000000000	20302.075027037
405.00000000000	20627.229715498
406.00000000000	20957.764733477
407.00000000000	21293.319379982
408.00000000000	21633.561051179
409.00000000000	21978.681755336
410.00000000000	22328.928561310
411.00000000000	22684.763405864
412.00000000000	23046.852636023
413.00000000000	23416.069737644
414.00000000000	23793.416235978
415.00000000000	24179.840080536
416.00000000000	24576.686693454
417.00000000000	24985.076783582
418.00000000000	25406.078390014
419.00000000000	25840.643908169
420.00000000000	26289.559174083
421.00000000000	26753.455435603
422.00000000000	27232.629462737
423.00000000000	27727.566983553
424.00000000000	28238.418386431
425.00000000000	28765.248639238
426.00000000000	29308.077961928
427.00000000000	29866.947747854
428.00000000000	30441.990425173
429.00000000000	31033.320519500
430.00000000000	31641.608104081
431.00000000000	32267.565812879
432.00000000000	32912.208352771
433.00000000000	33576.820250578
434.00000000000	34262.997650016
435.00000000000	34972.599475895
436.00000000000	35707.583380278
437.00000000000	36470.438223177
438.00000000000	37263.598025659
439.00000000000	38089.566335018
440.00000000000	38950.856342442
441.00000000000	39849.927043673
442.00000000000	40789.147159315
443.00000000000	41770.596487726
444.00000000000	42796.538495983
445.00000000000	43868.894441229
446.00000000000	44989.445012695
447.00000000000	46159.878465192
448.00000000000	47381.827802581
449.00000000000	48656.941207603
450.00000000000	49986.806791092
451.00000000000	51373.490664631
452.00000000000	52819.077876603
453.00000000000	54325.896139829
454.00000000000	55896.522162577
455.00000000000	57533.799669603
456.00000000000	59240.757222562
457.00000000000	61020.396889942
458.00000000000	62876.046075343
459.00000000000	64810.654561857
460.00000000000	66826.807300784
461.00000000000	68926.479032322
462.00000000000	71110.789253949
463.00000000000	73379.749752914
464.00000000000	75731.873253739
465.00000000000	78164.368934859
466.00000000000	80672.440806355
467.00000000000	83249.280261171
468.00000000000	85885.957463492
469.00000000000	88571.343999094
470.00000000000	91292.141795825
471.00000000000	94032.821383835
472.00000000000	96776.242449456
473.00000000000	99503.378868460
474.00000000000	102193.85431405
475.00000000000	104826.28812880
476.00000000000	107378.75473760
477.00000000000	109829.25556058
478.00000000000	112156.12068936
479.00000000000	114338.85112505
480.00000000000	116358.23808251
481.00000000000	118196.97807852
482.00000000000	119840.09375909
483.00000000000	121275.30234306
484.00000000000	122493.30288911
485.00000000000	123487.91763945
486.00000000000	124256.41839084
487.00000000000	124799.27937816
488.00000000000	125120.22102207
489.00000000000	125226.00862449
490.00000000000	125126.23746508
491.00000000000	124832.98016262
492.00000000000	124360.42851998
493.00000000000	123724.49681499
494.00000000000	122942.30206970
495.00000000000	122031.74031364
496.00000000000	121011.05206022
497.00000000000	119898.37929545
498.00000000000	118711.39397234
499.00000000000	117466.98678693
500.00000000000	116180.88837692
501.00000000000	114867.52137277
502.00000000000	113539.82452949
503.00000000000	112209.18129763
504.00000000000	110885.36873760
505.00000000000	109576.59646659
506.00000000000	108289.66463969
507.00000000000	107029.84646142
508.00000000000	105801.23726858
509.00000000000	104606.85708715
510.00000000000	103448.82195034
511.00000000000	102328.51343454
512.00000000000	101246.73369052
513.00000000000	100203.96255510
514.00000000000	99200.169899832
515.00000000000	98235.207247789
516.00000000000	97308.800611532
517.00000000000	96420.594356170
518.00000000000	95570.179858327
519.00000000000	94757.119129689
520.00000000000	93981.057687170
521.00000000000	93241.342398622
522.00000000000	92537.362168757
523.00000000000	91868.418274519
524.00000000000	91233.706468186
525.00000000000	90632.297664092
526.00000000000	90063.139571243
527.00000000000	89525.211620544
528.00000000000	89017.099202169
529.00000000000	88537.439482616
530.00000000000	88084.810412766
531.00000000000	87657.761013212
532.00000000000	87254.975060214
533.00000000000	86874.765522575
534.00000000000	86516.074039043
535.00000000000	86177.462080829
536.00000000000	85857.744823088
537.00000000000	85555.827129420
538.00000000000	85270.718515506
539.00000000000	85001.510999460
540.00000000000	84747.373122730
541.00000000000	84507.704554054
542.00000000000	84281.592112202
543.00000000000	84068.308434549
544.00000000000	83867.117310384
545.00000000000	83677.266209072
546.00000000000	83497.972920753
547.00000000000	83328.425369390
548.00000000000	83167.968211438
549.00000000000	83015.553044007
550.00000000000	82870.302836838
551.00000000000	82731.350549326
552.00000000000	82597.843378431
553.00000000000	82468.959679335
554.00000000000	82343.931868853
555.00000000000	82222.236377437
556.00000000000	82103.015573381
557.00000000000	81985.655127890
558.00000000000	81869.574530123
559.00000000000	81754.206414670
560.00000000000	81638.989228163
561.00000000000	81523.327738543
562.00000000000	81406.774685668
563.00000000000	81288.416625907
564.00000000000	81167.441452852
565.00000000000	81042.944861829
566.00000000000	80913.907599524
567.00000000000	80779.231363095
568.00000000000	80637.733650871
569.00000000000	80488.384894074
570.00000000000	80329.745211733
571.00000000000	80160.595189211
572.00000000000	79979.778242893
573.00000000000	79786.235708354
574.00000000000	79579.041095350
575.00000000000	79357.406667357
576.00000000000	79120.903991580
577.00000000000	78868.858975428
578.00000000000	78600.920638562
579.00000000000	78316.813421151
580.00000000000	78016.296901298
581.00000000000	77699.099059527
582.00000000000	77364.844049055
583.00000000000	77013.175901711
584.00000000000	76643.135600198
585.00000000000	76253.680422151
586.00000000000	75843.465175165
587.00000000000	75410.853164901
588.00000000000	74953.939849243
589.00000000000	74470.621714936
590.00000000000	73958.862497921
591.00000000000	73416.318848239
592.00000000000	72841.009969829
593.00000000000	72231.312181298
594.00000000000	71586.157529093
595.00000000000	70905.196188012
596.00000000000	70188.974584962
597.00000000000	69439.200888373
598.00000000000	68658.411914019
599.00000000000	67850.438117120
600.00000000000	67020.242466993
601.00000000000	66173.809640114
602.00000000000	65317.984588754
603.00000000000	64460.229646941
604.00000000000	63608.430466089
605.00000000000	62770.189013754
606.00000000000	61952.793380808
607.00000000000	61162.674724583
608.00000000000	60405.000657608
609.00000000000	59683.277359680
610.00000000000	58999.034405387
611.00000000000	58351.618624047
612.00000000000	57737.784722060
613.00000000000	57151.887207722
614.00000000000	56585.856484072
615.00000000000	56029.370903340
616.00000000000	55470.177076535
617.00000000000	54894.502543570
618.00000000000	54287.639070577
619.00000000000	53634.390431374
620.00000000000	52919.905966552
621.00000000000	52130.301592984
622.00000000000	51253.350484862
623.00000000000	50279.097727721
624.00000000000	49200.432215027
625.00000000000	48013.546075835
626.00000000000	46718.191724137
627.00000000000	45317.932277329
628.00000000000	43820.104483513
629.00000000000	42235.660369430
630.00000000000	40578.847167141
631.00000000000	38866.724654569
632.00000000000	37118.565832678
633.00000000000	35355.132834532
634.00000000000	33597.956184544
635.00000000000	31868.517452437
636.00000000000	30187.462951609
637.00000000000	28573.872279687
638.00000000000	27044.601049907
639.00000000000	25613.744834921
640.00000000000	24292.225978899
641.00000000000	23087.585903350
642.00000000000	22003.879676837
643.00000000000	21041.764508495
644.00000000000	20198.729047136
645.00000000000	19469.464183730
646.00000000000	18846.336827999
647.00000000000	18319.949663915
648.00000000000	17879.755989214
649.00000000000	17514.664095144
650.00000000000	17213.629265890
651.00000000000	16966.190933396
652.00000000000	16762.925951611
653.00000000000	16595.802509730
654.00000000000	16458.415259598
655.00000000000	16346.106421007
656.00000000000	16255.956278291
657.00000000000	16186.671273470
658.00000000000	16138.371929843
659.00000000000	16112.309607958
660.00000000000	16110.540088297
661.00000000000	16135.572294127
662.00000000000	16190.021023787
663.00000000000	16276.288632395
664.00000000000	16396.295991711
665.00000000000	16551.283050751
666.00000000000	16741.668291949
667.00000000000	16967.014962684
668.00000000000	17226.046890012
669.00000000000	17516.740470442
670.00000000000	17836.469354131
671.00000000000	18182.171647762
672.00000000000	18550.550075368
673.00000000000	18938.254817672
674.00000000000	19342.030154490
675.00000000000	19758.861255476
676.00000000000	20186.009431920
677.00000000000	20621.031673835
678.00000000000	21061.725287470
679.00000000000	21506.010828579
680.00000000000	21951.796325539
681.00000000000	22396.770591763
682.00000000000	22838.259696685
683.00000000000	23273.009757639
684.00000000000	23697.052950402
685.00000000000	24105.630273908
686.00000000000	24493.156334379
687.00000000000	24853.302146443
688.00000000000	25179.107791286
689.00000000000	25463.272981321
690.00000000000	25698.402623756
691.00000000000	25877.394631247
692.00000000000	25993.843689229
693.00000000000	26042.458616187
694.00000000000	26019.457886034
695.00000000000	25922.938721587
696.00000000000	25753.132557025
697.00000000000	25512.610558791
698.00000000000	25206.336919467
699.00000000000	24841.622532990
700.00000000000	24427.936203458
701.00000000000	23976.593959372
702.00000000000	23500.356219060
703.00000000000	23012.878113596
704.00000000000	22528.181886535
705.00000000000	22060.063735794
706.00000000000	21621.515484660
707.00000000000	21224.197748210
708.00000000000	20877.988363273
709.00000000000	20590.678485099
710.00000000000	20367.691571062
711.00000000000	20212.074334028
712.00000000000	20124.569263401
713.00000000000	20103.818504529
714.00000000000	20146.699053972
715.00000000000	20248.740593930
716.00000000000	20404.647095019
717.00000000000	20608.714278244
718.00000000000	20855.391008480
719.00000000000	21139.692671181
720.00000000000	21457.544215099
721.00000000000	21806.005809094
722.00000000000	22183.388039266
723.00000000000	22589.199486834
724.00000000000	23023.975420215
725.00000000000	23489.001477363
726.00000000000	23985.923513051
727.00000000000	24516.306672420
728.00000000000	25081.170880958
729.00000000000	25680.558172238
730.00000000000	26313.102427047
731.00000000000	26975.859506997
732.00000000000	27664.037452889
733.00000000000	28371.046022286
734.00000000000	29088.623145120
735.00000000000	29807.128871322
736.00000000000	30516.018290521
737.00000000000	31204.264578940
738.00000000000	31861.185488550
739.00000000000	32476.875390549
740.00000000000	33042.876603205
741.00000000000	33552.688898787
742.00000000000	34002.181708281
743.00000000000	34389.831074332
744.00000000000	34716.665115417
745.00000000000	34986.501307988
746.00000000000	35205.264606640
747.00000000000	35380.619513107
748.00000000000	35521.327632629
749.00000000000	35636.524660399
750.00000000000	35735.000408370
